experiment_id,arm,record,seed,macro_f1_present,source_change,used_bytes,replay_items
E16,A0,100,42,0.82702,0.0,0,0
E16,A0,100,43,0.82702,0.0,0,0
E16,A0,100,44,0.82702,0.0,0,0
E16,A0,100,45,0.82702,0.0,0,0
E16,A0,100,46,0.82702,0.0,0,0
E16,A0,103,42,0.499684,0.0,0,0
E16,A0,103,43,0.499684,0.0,0,0
E16,A0,103,44,0.499684,0.0,0,0
E16,A0,103,45,0.499684,0.0,0,0
E16,A0,103,46,0.499684,0.0,0,0
E16,A0,105,42,0.658704,0.0,0,0
E16,A0,105,43,0.658704,0.0,0,0
E16,A0,105,44,0.658704,0.0,0,0
E16,A0,105,45,0.658704,0.0,0,0
E16,A0,105,46,0.658704,0.0,0,0
E16,A0,111,42,0.473182,0.0,0,0
E16,A0,111,43,0.473182,0.0,0,0
E16,A0,111,44,0.473182,0.0,0,0
E16,A0,111,45,0.473182,0.0,0,0
E16,A0,111,46,0.473182,0.0,0,0
E16,A0,113,42,0.642081,0.0,0,0
E16,A0,113,43,0.642081,0.0,0,0
E16,A0,113,44,0.642081,0.0,0,0
E16,A0,113,45,0.642081,0.0,0,0
E16,A0,113,46,0.642081,0.0,0,0
E16,A0,117,42,0.206313,0.0,0,0
E16,A0,117,43,0.206313,0.0,0,0
E16,A0,117,44,0.206313,0.0,0,0
E16,A0,117,45,0.206313,0.0,0,0
E16,A0,117,46,0.206313,0.0,0,0
E16,A0,121,42,0.666544,0.0,0,0
E16,A0,121,43,0.666544,0.0,0,0
E16,A0,121,44,0.666544,0.0,0,0
E16,A0,121,45,0.666544,0.0,0,0
E16,A0,121,46,0.666544,0.0,0,0
E16,A0,123,42,0.999506,0.0,0,0
E16,A0,123,43,0.999506,0.0,0,0
E16,A0,123,44,0.999506,0.0,0,0
E16,A0,123,45,0.999506,0.0,0,0
E16,A0,123,46,0.999506,0.0,0,0
E16,A0,200,42,0.7504,0.0,0,0
E16,A0,200,43,0.7504,0.0,0,0
E16,A0,200,44,0.7504,0.0,0,0
E16,A0,200,45,0.7504,0.0,0,0
E16,A0,200,46,0.7504,0.0,0,0
E16,A0,210,42,0.595096,0.0,0,0
E16,A0,210,43,0.595096,0.0,0,0
E16,A0,210,44,0.595096,0.0,0,0
E16,A0,210,45,0.595096,0.0,0,0
E16,A0,210,46,0.595096,0.0,0,0
E16,A0,212,42,0.998662,0.0,0,0
E16,A0,212,43,0.998662,0.0,0,0
E16,A0,212,44,0.998662,0.0,0,0
E16,A0,212,45,0.998662,0.0,0,0
E16,A0,212,46,0.998662,0.0,0,0
E16,A0,213,42,0.367682,0.0,0,0
E16,A0,213,43,0.367682,0.0,0,0
E16,A0,213,44,0.367682,0.0,0,0
E16,A0,213,45,0.367682,0.0,0,0
E16,A0,213,46,0.367682,0.0,0,0
E16,A0,214,42,0.892595,0.0,0,0
E16,A0,214,43,0.892595,0.0,0,0
E16,A0,214,44,0.892595,0.0,0,0
E16,A0,214,45,0.892595,0.0,0,0
E16,A0,214,46,0.892595,0.0,0,0
E16,A0,219,42,0.426719,0.0,0,0
E16,A0,219,43,0.426719,0.0,0,0
E16,A0,219,44,0.426719,0.0,0,0
E16,A0,219,45,0.426719,0.0,0,0
E16,A0,219,46,0.426719,0.0,0,0
E16,A0,221,42,0.999074,0.0,0,0
E16,A0,221,43,0.999074,0.0,0,0
E16,A0,221,44,0.999074,0.0,0,0
E16,A0,221,45,0.999074,0.0,0,0
E16,A0,221,46,0.999074,0.0,0,0
E16,A0,222,42,0.692089,0.0,0,0
E16,A0,222,43,0.692089,0.0,0,0
E16,A0,222,44,0.692089,0.0,0,0
E16,A0,222,45,0.692089,0.0,0,0
E16,A0,222,46,0.692089,0.0,0,0
E16,A0,228,42,0.625368,0.0,0,0
E16,A0,228,43,0.625368,0.0,0,0
E16,A0,228,44,0.625368,0.0,0,0
E16,A0,228,45,0.625368,0.0,0,0
E16,A0,228,46,0.625368,0.0,0,0
E16,A0,231,42,0.997654,0.0,0,0
E16,A0,231,43,0.997654,0.0,0,0
E16,A0,231,44,0.997654,0.0,0,0
E16,A0,231,45,0.997654,0.0,0,0
E16,A0,231,46,0.997654,0.0,0,0
E16,A0,232,42,0.187375,0.0,0,0
E16,A0,232,43,0.187375,0.0,0,0
E16,A0,232,44,0.187375,0.0,0,0
E16,A0,232,45,0.187375,0.0,0,0
E16,A0,232,46,0.187375,0.0,0,0
E16,A0,233,42,0.761214,0.0,0,0
E16,A0,233,43,0.761214,0.0,0,0
E16,A0,233,44,0.761214,0.0,0,0
E16,A0,233,45,0.761214,0.0,0,0
E16,A0,233,46,0.761214,0.0,0,0
E16,A0,234,42,0.72661,0.0,0,0
E16,A0,234,43,0.72661,0.0,0,0
E16,A0,234,44,0.72661,0.0,0,0
E16,A0,234,45,0.72661,0.0,0,0
E16,A0,234,46,0.72661,0.0,0,0
E16,A1,100,42,0.966842,-0.0637,15345,656
E16,A1,100,43,0.966842,-0.0375,15345,656
E16,A1,100,44,0.966842,-0.0428,15345,656
E16,A1,100,45,0.966842,-0.0376,15345,656
E16,A1,100,46,0.966842,-0.0347,15345,656
E16,A1,103,42,0.499049,-0.0724,15345,656
E16,A1,103,43,0.499684,-0.0209,15345,656
E16,A1,103,44,0.499367,-0.0379,15345,656
E16,A1,103,45,0.499367,-0.0307,15345,656
E16,A1,103,46,0.499367,-0.0317,15345,656
E16,A1,105,42,0.640982,-0.0656,15345,656
E16,A1,105,43,0.657453,-0.0161,15345,656
E16,A1,105,44,0.65491,-0.0286,15345,656
E16,A1,105,45,0.666464,-0.0293,15345,656
E16,A1,105,46,0.660936,-0.0185,15345,656
E16,A1,111,42,0.531734,-0.0439,15345,656
E16,A1,111,43,0.524685,-0.0219,15345,656
E16,A1,111,44,0.534103,-0.0297,15345,656
E16,A1,111,45,0.523004,-0.0295,15345,656
E16,A1,111,46,0.54843,-0.0179,15345,656
E16,A1,113,42,0.832945,-0.0407,15345,656
E16,A1,113,43,0.749224,-0.0264,15345,656
E16,A1,113,44,0.899806,-0.0447,15345,656
E16,A1,113,45,0.899806,-0.0256,15345,656
E16,A1,113,46,0.899806,-0.0279,15345,656
E16,A1,117,42,0.998053,-0.0883,15345,656
E16,A1,117,43,1.0,-0.0266,15345,656
E16,A1,117,44,1.0,-0.0704,15345,656
E16,A1,117,45,0.999757,-0.0508,15345,656
E16,A1,117,46,0.999757,-0.0298,15345,656
E16,A1,121,42,0.888643,-0.0635,15345,656
E16,A1,121,43,0.888766,-0.0187,15345,656
E16,A1,121,44,1.0,-0.0324,15345,656
E16,A1,121,45,0.666421,-0.0328,15345,656
E16,A1,121,46,0.555187,-0.0179,15345,656
E16,A1,123,42,0.999506,-0.0431,15345,656
E16,A1,123,43,0.999506,-0.0338,15345,656
E16,A1,123,44,0.999506,-0.0407,15345,656
E16,A1,123,45,0.999506,-0.0403,15345,656
E16,A1,123,46,0.999506,-0.0271,15345,656
E16,A1,200,42,0.760975,-0.0266,15345,656
E16,A1,200,43,0.740587,-0.0058,15345,656
E16,A1,200,44,0.749062,-0.0136,15345,656
E16,A1,200,45,0.745243,-0.0225,15345,656
E16,A1,200,46,0.745997,-0.0145,15345,656
E16,A1,210,42,0.68748,-0.0427,15345,656
E16,A1,210,43,0.616086,-0.0311,15345,656
E16,A1,210,44,0.663865,-0.0277,15345,656
E16,A1,210,45,0.664131,-0.0509,15345,656
E16,A1,210,46,0.640259,-0.0364,15345,656
E16,A1,212,42,0.998439,-0.0312,15345,656
E16,A1,212,43,0.998662,-0.0153,15345,656
E16,A1,212,44,0.998215,-0.0144,15345,656
E16,A1,212,45,0.998215,-0.0186,15345,656
E16,A1,212,46,0.998885,-0.0117,15345,656
E16,A1,213,42,0.564719,-0.0479,15345,656
E16,A1,213,43,0.540725,-0.0301,15345,656
E16,A1,213,44,0.527537,-0.0594,15345,656
E16,A1,213,45,0.542816,-0.0558,15345,656
E16,A1,213,46,0.53727,-0.0413,15345,656
E16,A1,214,42,0.984202,-0.0763,15345,656
E16,A1,214,43,0.971935,-0.0343,15345,656
E16,A1,214,44,0.979663,-0.053,15345,656
E16,A1,214,45,0.982778,-0.0588,15345,656
E16,A1,214,46,0.967564,-0.0347,15345,656
E16,A1,219,42,0.646548,-0.0492,15345,656
E16,A1,219,43,0.654582,-0.0245,15345,656
E16,A1,219,44,0.642941,-0.0294,15345,656
E16,A1,219,45,0.65238,-0.0521,15345,656
E16,A1,219,46,0.650074,-0.0153,15345,656
E16,A1,221,42,0.996847,-0.0268,15345,656
E16,A1,221,43,0.996788,-0.0093,15345,656
E16,A1,221,44,0.997623,-0.0098,15345,656
E16,A1,221,45,0.996478,-0.0158,15345,656
E16,A1,221,46,0.997098,-0.0137,15345,656
E16,A1,222,42,0.658201,-0.0388,15345,656
E16,A1,222,43,0.665318,-0.0212,15345,656
E16,A1,222,44,0.688224,-0.04,15345,656
E16,A1,222,45,0.692954,-0.0294,15345,656
E16,A1,222,46,0.673959,-0.0176,15345,656
E16,A1,228,42,0.659687,-0.035,15345,656
E16,A1,228,43,0.662146,-0.0135,15345,656
E16,A1,228,44,0.660221,-0.036,15345,656
E16,A1,228,45,0.660072,-0.0268,15345,656
E16,A1,228,46,0.663877,-0.0254,15345,656
E16,A1,231,42,1.0,-0.0565,15345,656
E16,A1,231,43,1.0,-0.0212,15345,656
E16,A1,231,44,1.0,-0.0547,15345,656
E16,A1,231,45,1.0,-0.0339,15345,656
E16,A1,231,46,1.0,-0.0276,15345,656
E16,A1,232,42,0.963316,-0.2054,15345,656
E16,A1,232,43,0.943849,-0.187,15345,656
E16,A1,232,44,0.964416,-0.2078,15345,656
E16,A1,232,45,0.956569,-0.2027,15345,656
E16,A1,232,46,0.952659,-0.1804,15345,656
E16,A1,233,42,0.658033,-0.0548,15345,656
E16,A1,233,43,0.658881,-0.0367,15345,656
E16,A1,233,44,0.754487,-0.0572,15345,656
E16,A1,233,45,0.825271,-0.041,15345,656
E16,A1,233,46,0.766124,-0.0335,15345,656
E16,A1,234,42,0.744405,-0.0679,15345,656
E16,A1,234,43,0.752197,-0.0288,15345,656
E16,A1,234,44,0.686243,-0.0419,15345,656
E16,A1,234,45,0.790622,-0.0295,15345,656
E16,A1,234,46,0.799511,-0.0269,15345,656
E16,A2,100,42,0.966842,-0.0414,15354,629
E16,A2,100,43,0.966842,-0.0428,15354,629
E16,A2,100,44,0.980845,-0.0438,15354,629
E16,A2,100,45,0.935311,-0.0367,15354,629
E16,A2,100,46,0.966842,-0.0399,15354,629
E16,A2,103,42,0.499367,-0.0306,15354,629
E16,A2,103,43,0.499684,-0.0331,15354,629
E16,A2,103,44,0.499367,-0.0414,15354,629
E16,A2,103,45,0.499367,-0.0359,15354,629
E16,A2,103,46,0.499525,-0.0216,15354,629
E16,A2,105,42,0.647062,-0.029,15354,629
E16,A2,105,43,0.671768,-0.048,15354,629
E16,A2,105,44,0.669326,-0.0558,15354,629
E16,A2,105,45,0.680299,-0.0183,15354,629
E16,A2,105,46,0.636902,-0.0278,15354,629
E16,A2,111,42,0.546425,-0.0305,15354,629
E16,A2,111,43,0.546894,-0.026,15354,629
E16,A2,111,44,0.581008,-0.0359,15354,629
E16,A2,111,45,0.581008,-0.0266,15354,629
E16,A2,111,46,0.54937,-0.028,15354,629
E16,A2,113,42,0.899806,-0.0384,15354,629
E16,A2,113,43,0.899806,-0.0323,15354,629
E16,A2,113,44,0.785132,-0.0695,15354,629
E16,A2,113,45,0.899806,-0.0393,15354,629
E16,A2,113,46,0.899806,-0.0307,15354,629
E16,A2,117,42,0.498298,-0.0492,15354,629
E16,A2,117,43,0.499757,-0.0608,15354,629
E16,A2,117,44,0.991617,-0.0624,15354,629
E16,A2,117,45,0.997808,-0.0361,15354,629
E16,A2,117,46,0.999757,-0.0251,15354,629
E16,A2,121,42,0.666421,-0.0301,15354,629
E16,A2,121,43,0.666544,-0.0241,15354,629
E16,A2,121,44,0.999877,-0.0352,15354,629
E16,A2,121,45,0.55531,-0.0339,15354,629
E16,A2,121,46,0.666421,-0.0191,15354,629
E16,A2,123,42,0.999506,-0.0482,15354,629
E16,A2,123,43,0.999506,-0.0356,15354,629
E16,A2,123,44,0.999506,-0.0552,15354,629
E16,A2,123,45,0.999259,-0.0492,15354,629
E16,A2,123,46,0.999506,-0.0237,15354,629
E16,A2,200,42,0.819917,-0.0564,15354,629
E16,A2,200,43,0.73626,-0.0005,15354,629
E16,A2,200,44,0.753422,-0.0241,15354,629
E16,A2,200,45,0.737129,-0.0243,15354,629
E16,A2,200,46,0.760286,-0.0202,15354,629
E16,A2,210,42,0.68752,-0.0455,15354,629
E16,A2,210,43,0.674976,-0.0368,15354,629
E16,A2,210,44,0.682956,-0.0398,15354,629
E16,A2,210,45,0.619795,-0.0329,15354,629
E16,A2,210,46,0.613564,-0.0326,15354,629
E16,A2,212,42,0.997768,-0.0247,15354,629
E16,A2,212,43,0.998215,-0.0234,15354,629
E16,A2,212,44,0.998215,-0.013,15354,629
E16,A2,212,45,0.994176,-0.0378,15354,629
E16,A2,212,46,0.998885,-0.0047,15354,629
E16,A2,213,42,0.517423,-0.0365,15354,629
E16,A2,213,43,0.532985,-0.053,15354,629
E16,A2,213,44,0.525692,-0.0855,15354,629
E16,A2,213,45,0.521938,-0.0483,15354,629
E16,A2,213,46,0.546571,-0.0501,15354,629
E16,A2,214,42,0.983256,-0.066,15354,629
E16,A2,214,43,0.985928,-0.0777,15354,629
E16,A2,214,44,0.9857,-0.0494,15354,629
E16,A2,214,45,0.960857,-0.0559,15354,629
E16,A2,214,46,0.987033,-0.0532,15354,629
E16,A2,219,42,0.645878,-0.0645,15354,629
E16,A2,219,43,0.628439,-0.0342,15354,629
E16,A2,219,44,0.63288,-0.0452,15354,629
E16,A2,219,45,0.64273,-0.1061,15354,629
E16,A2,219,46,0.645403,-0.0489,15354,629
E16,A2,221,42,0.995912,-0.0323,15354,629
E16,A2,221,43,0.994139,-0.0321,15354,629
E16,A2,221,44,0.997562,-0.015,15354,629
E16,A2,221,45,0.996943,-0.0042,15354,629
E16,A2,221,46,0.997098,0.0013,15354,629
E16,A2,222,42,0.672379,-0.0252,15354,629
E16,A2,222,43,0.661699,-0.0175,15354,629
E16,A2,222,44,0.666664,-0.0498,15354,629
E16,A2,222,45,0.700433,-0.0329,15354,629
E16,A2,222,46,0.655317,-0.0271,15354,629
E16,A2,228,42,0.662132,-0.0416,15354,629
E16,A2,228,43,0.656711,-0.0211,15354,629
E16,A2,228,44,0.66172,-0.0531,15354,629
E16,A2,228,45,0.656806,-0.0268,15354,629
E16,A2,228,46,0.66226,-0.0336,15354,629
E16,A2,231,42,1.0,-0.0338,15354,629
E16,A2,231,43,1.0,-0.0382,15354,629
E16,A2,231,44,1.0,-0.0818,15354,629
E16,A2,231,45,1.0,-0.0546,15354,629
E16,A2,231,46,1.0,-0.0271,15354,629
E16,A2,232,42,0.953203,-0.1494,15354,629
E16,A2,232,43,0.962121,-0.1339,15354,629
E16,A2,232,44,0.968433,-0.2214,15354,629
E16,A2,232,45,0.936997,-0.1637,15354,629
E16,A2,232,46,0.951338,-0.1874,15354,629
E16,A2,233,42,0.754687,-0.0684,15354,629
E16,A2,233,43,0.754464,-0.0365,15354,629
E16,A2,233,44,0.659395,-0.0438,15354,629
E16,A2,233,45,0.659759,-0.0514,15354,629
E16,A2,233,46,0.754649,-0.0265,15354,629
E16,A2,234,42,0.775435,-0.0643,15354,629
E16,A2,234,43,0.606111,-0.0398,15354,629
E16,A2,234,44,0.790543,-0.0423,15354,629
E16,A2,234,45,0.743267,-0.0215,15354,629
E16,A2,234,46,0.761846,-0.03,15354,629
E16,A3,100,42,0.973976,-0.0786,15342,601
E16,A3,100,43,0.966842,-0.073,15342,601
E16,A3,100,44,0.973976,-0.0565,15342,601
E16,A3,100,45,0.987463,-0.038,15342,601
E16,A3,100,46,0.94368,-0.0256,15342,601
E16,A3,103,42,0.499049,-0.0739,15342,601
E16,A3,103,43,0.499367,-0.0237,15342,601
E16,A3,103,44,0.499367,-0.0519,15342,601
E16,A3,103,45,0.499049,-0.0328,15342,601
E16,A3,103,46,0.499367,-0.0233,15342,601
E16,A3,105,42,0.66796,-0.0466,15342,601
E16,A3,105,43,0.700105,-0.0241,15342,601
E16,A3,105,44,0.668011,-0.0324,15342,601
E16,A3,105,45,0.657155,-0.0262,15342,601
E16,A3,105,46,0.676766,-0.0131,15342,601
E16,A3,111,42,0.551197,-0.0578,15342,601
E16,A3,111,43,0.564029,-0.0328,15342,601
E16,A3,111,44,0.529464,-0.0592,15342,601
E16,A3,111,45,0.533433,-0.0424,15342,601
E16,A3,111,46,0.53959,-0.0238,15342,601
E16,A3,113,42,0.832945,-0.1089,15342,601
E16,A3,113,43,0.899806,-0.0118,15342,601
E16,A3,113,44,0.832945,-0.0673,15342,601
E16,A3,113,45,0.832945,-0.0422,15342,601
E16,A3,113,46,0.652096,-0.037,15342,601
E16,A3,117,42,0.998785,-0.1091,15342,601
E16,A3,117,43,0.498297,-0.0271,15342,601
E16,A3,117,44,0.493124,-0.0587,15342,601
E16,A3,117,45,0.498541,-0.0427,15342,601
E16,A3,117,46,0.999757,-0.0228,15342,601
E16,A3,121,42,0.832842,-0.0614,15342,601
E16,A3,121,43,0.666544,-0.0147,15342,601
E16,A3,121,44,0.88852,-0.055,15342,601
E16,A3,121,45,0.666421,-0.0482,15342,601
E16,A3,121,46,0.666421,-0.0232,15342,601
E16,A3,123,42,0.999506,-0.1099,15342,601
E16,A3,123,43,0.999506,-0.0463,15342,601
E16,A3,123,44,0.999506,-0.0625,15342,601
E16,A3,123,45,0.999506,-0.0789,15342,601
E16,A3,123,46,0.999506,-0.042,15342,601
E16,A3,200,42,0.752295,-0.0336,15342,601
E16,A3,200,43,0.752606,-0.0123,15342,601
E16,A3,200,44,0.760377,-0.028,15342,601
E16,A3,200,45,0.709205,-0.0027,15342,601
E16,A3,200,46,0.738828,-0.0098,15342,601
E16,A3,210,42,0.687347,-0.0426,15342,601
E16,A3,210,43,0.64301,-0.039,15342,601
E16,A3,210,44,0.643389,-0.0291,15342,601
E16,A3,210,45,0.608328,-0.0434,15342,601
E16,A3,210,46,0.669321,-0.0374,15342,601
E16,A3,212,42,0.997096,-0.0605,15342,601
E16,A3,212,43,0.995076,-0.0386,15342,601
E16,A3,212,44,0.996648,-0.0279,15342,601
E16,A3,212,45,0.99732,-0.0184,15342,601
E16,A3,212,46,0.998662,-0.0073,15342,601
E16,A3,213,42,0.568343,-0.0628,15342,601
E16,A3,213,43,0.574412,-0.0416,15342,601
E16,A3,213,44,0.524541,-0.0432,15342,601
E16,A3,213,45,0.528825,-0.0229,15342,601
E16,A3,213,46,0.511859,-0.0195,15342,601
E16,A3,214,42,0.979439,-0.0687,15342,601
E16,A3,214,43,0.965668,-0.0418,15342,601
E16,A3,214,44,0.982778,-0.0634,15342,601
E16,A3,214,45,0.933856,-0.0566,15342,601
E16,A3,214,46,0.994071,-0.0631,15342,601
E16,A3,219,42,0.654076,-0.0738,15342,601
E16,A3,219,43,0.628639,-0.032,15342,601
E16,A3,219,44,0.641113,-0.0203,15342,601
E16,A3,219,45,0.646533,-0.0957,15342,601
E16,A3,219,46,0.644236,-0.0326,15342,601
E16,A3,221,42,0.992726,-0.0739,15342,601
E16,A3,221,43,0.996167,-0.0337,15342,601
E16,A3,221,44,0.995444,-0.0268,15342,601
E16,A3,221,45,0.995756,-0.0194,15342,601
E16,A3,221,46,0.997468,-0.0093,15342,601
E16,A3,222,42,0.66875,-0.0381,15342,601
E16,A3,222,43,0.649412,-0.0477,15342,601
E16,A3,222,44,0.655307,-0.0477,15342,601
E16,A3,222,45,0.682446,-0.0451,15342,601
E16,A3,222,46,0.677395,-0.0251,15342,601
E16,A3,228,42,0.664681,-0.0409,15342,601
E16,A3,228,43,0.66078,-0.0154,15342,601
E16,A3,228,44,0.661832,-0.0421,15342,601
E16,A3,228,45,0.663454,-0.0358,15342,601
E16,A3,228,46,0.665355,-0.0286,15342,601
E16,A3,231,42,1.0,-0.11,15342,601
E16,A3,231,43,1.0,-0.0278,15342,601
E16,A3,231,44,1.0,-0.0746,15342,601
E16,A3,231,45,1.0,-0.0542,15342,601
E16,A3,231,46,1.0,-0.0232,15342,601
E16,A3,232,42,0.978152,-0.1912,15342,601
E16,A3,232,43,0.976516,-0.1603,15342,601
E16,A3,232,44,0.970327,-0.1814,15342,601
E16,A3,232,45,0.94542,-0.1689,15342,601
E16,A3,232,46,0.978517,-0.1997,15342,601
E16,A3,233,42,0.740653,-0.0594,15342,601
E16,A3,233,43,0.658299,-0.0226,15342,601
E16,A3,233,44,0.754411,-0.0567,15342,601
E16,A3,233,45,0.658196,-0.0217,15342,601
E16,A3,233,46,0.658632,-0.02,15342,601
E16,A3,234,42,0.722351,-0.0637,15342,601
E16,A3,234,43,0.7182,-0.0318,15342,601
E16,A3,234,44,0.734921,-0.0434,15342,601
E16,A3,234,45,0.72294,-0.0374,15342,601
E16,A3,234,46,0.734277,-0.0229,15342,601
E16,A4,100,42,0.887554,0.0012,15193,57
E16,A4,100,43,0.935311,-0.0033,15193,57
E16,A4,100,44,0.980845,-0.0304,15193,57
E16,A4,100,45,0.959427,-0.008,15193,57
E16,A4,100,46,0.959427,-0.0086,15193,57
E16,A4,103,42,0.499684,0.0055,15193,57
E16,A4,103,43,0.499684,0.0049,15193,57
E16,A4,103,44,0.499684,0.0008,15193,57
E16,A4,103,45,0.499684,-0.0004,15193,57
E16,A4,103,46,0.499684,-0.0005,15193,57
E16,A4,105,42,0.657466,-0.0473,15193,57
E16,A4,105,43,0.69262,0.0065,15193,57
E16,A4,105,44,0.696099,0.0034,15193,57
E16,A4,105,45,0.678926,0.0038,15193,57
E16,A4,105,46,0.73339,-0.0115,15193,57
E16,A4,111,42,0.749537,-0.0568,15193,57
E16,A4,111,43,0.574909,0.0059,15193,57
E16,A4,111,44,0.699382,-0.0214,15193,57
E16,A4,111,45,0.749227,-0.0113,15193,57
E16,A4,111,46,0.665894,-0.0007,15193,57
E16,A4,113,42,1.0,-0.0719,15193,57
E16,A4,113,43,0.899806,-0.0234,15193,57
E16,A4,113,44,1.0,-0.0102,15193,57
E16,A4,113,45,0.642081,0.0019,15193,57
E16,A4,113,46,1.0,0.0003,15193,57
E16,A4,117,42,0.999271,0.0018,15193,57
E16,A4,117,43,0.832118,-0.0015,15193,57
E16,A4,117,44,0.999515,0.0004,15193,57
E16,A4,117,45,0.999515,0.0037,15193,57
E16,A4,117,46,0.999515,-0.0024,15193,57
E16,A4,121,42,0.666544,0.0027,15193,57
E16,A4,121,43,0.555064,-0.0039,15193,57
E16,A4,121,44,0.666544,0.0015,15193,57
E16,A4,121,45,0.666544,0.0011,15193,57
E16,A4,121,46,0.555187,0.0038,15193,57
E16,A4,123,42,0.999506,-0.0131,15193,57
E16,A4,123,43,0.999506,-0.0077,15193,57
E16,A4,123,44,0.999506,0.0077,15193,57
E16,A4,123,45,0.999506,0.001,15193,57
E16,A4,123,46,0.999506,0.0009,15193,57
E16,A4,200,42,0.725969,-0.0813,15193,57
E16,A4,200,43,0.723772,0.0081,15193,57
E16,A4,200,44,0.733781,0.0025,15193,57
E16,A4,200,45,0.725238,0.0097,15193,57
E16,A4,200,46,0.733547,-0.0063,15193,57
E16,A4,210,42,0.781607,-0.0793,15193,57
E16,A4,210,43,0.714581,-0.0221,15193,57
E16,A4,210,44,0.620318,0.0072,15193,57
E16,A4,210,45,0.843664,-0.0439,15193,57
E16,A4,210,46,0.743158,-0.0321,15193,57
E16,A4,212,42,0.998885,0.0022,15193,57
E16,A4,212,43,0.998885,0.0062,15193,57
E16,A4,212,44,0.998885,0.0061,15193,57
E16,A4,212,45,0.998885,0.0006,15193,57
E16,A4,212,46,0.998885,-0.0025,15193,57
E16,A4,213,42,0.519569,-0.0764,15193,57
E16,A4,213,43,0.550789,-0.0452,15193,57
E16,A4,213,44,0.550138,-0.0886,15193,57
E16,A4,213,45,0.539238,-0.0885,15193,57
E16,A4,213,46,0.585458,-0.0625,15193,57
E16,A4,214,42,0.993286,-0.1108,15193,57
E16,A4,214,43,0.994418,-0.0446,15193,57
E16,A4,214,44,0.993446,-0.0376,15193,57
E16,A4,214,45,0.988891,-0.019,15193,57
E16,A4,214,46,0.992966,-0.0208,15193,57
E16,A4,219,42,0.623029,-0.0078,15193,57
E16,A4,219,43,0.625621,0.0018,15193,57
E16,A4,219,44,0.649373,-0.0739,15193,57
E16,A4,219,45,0.655487,-0.0493,15193,57
E16,A4,219,46,0.65231,-0.0325,15193,57
E16,A4,221,42,0.999383,0.0049,15193,57
E16,A4,221,43,0.999692,0.0031,15193,57
E16,A4,221,44,0.999383,0.0038,15193,57
E16,A4,221,45,0.999229,0.0058,15193,57
E16,A4,221,46,0.999846,0.0058,15193,57
E16,A4,222,42,0.693001,-0.0004,15193,57
E16,A4,222,43,0.695802,0.0085,15193,57
E16,A4,222,44,0.693242,0.0069,15193,57
E16,A4,222,45,0.696335,0.0054,15193,57
E16,A4,222,46,0.665486,-0.0044,15193,57
E16,A4,228,42,0.663757,-0.0265,15193,57
E16,A4,228,43,0.662275,-0.0021,15193,57
E16,A4,228,44,0.662288,-0.0619,15193,57
E16,A4,228,45,0.659987,0.0021,15193,57
E16,A4,228,46,0.664687,-0.0415,15193,57
E16,A4,231,42,1.0,0.0029,15193,57
E16,A4,231,43,1.0,-0.0871,15193,57
E16,A4,231,44,1.0,0.0013,15193,57
E16,A4,231,45,1.0,-0.0314,15193,57
E16,A4,231,46,1.0,-0.0194,15193,57
E16,A4,232,42,0.993065,-0.2109,15193,57
E16,A4,232,43,0.990737,-0.1385,15193,57
E16,A4,232,44,0.993316,-0.1837,15193,57
E16,A4,232,45,0.990469,-0.1729,15193,57
E16,A4,232,46,0.98981,-0.1648,15193,57
E16,A4,233,42,0.860961,-0.0473,15193,57
E16,A4,233,43,0.851751,-0.0226,15193,57
E16,A4,233,44,0.808089,-0.0169,15193,57
E16,A4,233,45,0.769644,0.0002,15193,57
E16,A4,233,46,0.808293,0.0045,15193,57
E16,A4,234,42,0.723892,0.0066,15193,57
E16,A4,234,43,0.676137,0.0069,15193,57
E16,A4,234,44,0.74523,0.0085,15193,57
E16,A4,234,45,0.74523,0.005,15193,57
E16,A4,234,46,0.66299,0.0043,15193,57
E16,A5,100,42,0.993844,-0.1623,15211,47
E16,A5,100,43,0.966842,-0.0039,15211,47
E16,A5,100,44,0.973976,-0.009,15211,47
E16,A5,100,45,0.987463,-0.0461,15211,47
E16,A5,100,46,0.951712,-0.0123,15211,47
E16,A5,103,42,0.499525,-0.1261,15211,47
E16,A5,103,43,0.499684,0.0012,15211,47
E16,A5,103,44,0.499684,-0.0345,15211,47
E16,A5,103,45,0.499525,-0.0369,15211,47
E16,A5,103,46,0.499525,-0.0118,15211,47
E16,A5,105,42,0.666907,-0.0063,15211,47
E16,A5,105,43,0.687524,0.0061,15211,47
E16,A5,105,44,0.682782,0.0026,15211,47
E16,A5,105,45,0.695339,-0.0155,15211,47
E16,A5,105,46,0.688605,-0.0103,15211,47
E16,A5,111,42,0.665739,-0.0084,15211,47
E16,A5,111,43,0.56957,-0.0021,15211,47
E16,A5,111,44,0.514234,0.0072,15211,47
E16,A5,111,45,0.665274,-0.0158,15211,47
E16,A5,111,46,0.699382,-0.0228,15211,47
E16,A5,113,42,1.0,-0.0657,15211,47
E16,A5,113,43,1.0,-0.0092,15211,47
E16,A5,113,44,1.0,-0.0245,15211,47
E16,A5,113,45,1.0,-0.0613,15211,47
E16,A5,113,46,1.0,-0.0238,15211,47
E16,A5,117,42,0.499515,-0.0015,15211,47
E16,A5,117,43,0.999757,0.0004,15211,47
E16,A5,117,44,0.999757,-0.0071,15211,47
E16,A5,117,45,0.499515,-0.03,15211,47
E16,A5,117,46,0.499515,-0.0046,15211,47
E16,A5,121,42,0.666052,-0.1097,15211,47
E16,A5,121,43,0.666544,0.0027,15211,47
E16,A5,121,44,0.666544,0.0027,15211,47
E16,A5,121,45,0.555187,-0.0355,15211,47
E16,A5,121,46,0.555187,-0.0088,15211,47
E16,A5,123,42,0.999506,-0.1547,15211,47
E16,A5,123,43,0.999506,-0.0011,15211,47
E16,A5,123,44,0.999506,-0.0409,15211,47
E16,A5,123,45,0.999506,-0.0376,15211,47
E16,A5,123,46,0.999506,0.0069,15211,47
E16,A5,200,42,0.718645,-0.0208,15211,47
E16,A5,200,43,0.722501,0.0079,15211,47
E16,A5,200,44,0.720165,0.0005,15211,47
E16,A5,200,45,0.727716,0.0074,15211,47
E16,A5,200,46,0.736152,0.0069,15211,47
E16,A5,210,42,0.654878,0.009,15211,47
E16,A5,210,43,0.75005,-0.0161,15211,47
E16,A5,210,44,0.656822,0.0014,15211,47
E16,A5,210,45,0.717352,-0.0915,15211,47
E16,A5,210,46,0.65465,0.0064,15211,47
E16,A5,212,42,0.999331,-0.1406,15211,47
E16,A5,212,43,0.998885,-0.0009,15211,47
E16,A5,212,44,0.999331,-0.0027,15211,47
E16,A5,212,45,0.999108,-0.0447,15211,47
E16,A5,212,46,0.998885,0.0017,15211,47
E16,A5,213,42,0.577371,-0.1597,15211,47
E16,A5,213,43,0.575642,-0.0607,15211,47
E16,A5,213,44,0.583191,-0.0653,15211,47
E16,A5,213,45,0.646249,-0.1242,15211,47
E16,A5,213,46,0.52006,-0.0941,15211,47
E16,A5,214,42,0.941384,0.0007,15211,47
E16,A5,214,43,0.978559,-0.0148,15211,47
E16,A5,214,44,0.986933,-0.061,15211,47
E16,A5,214,45,0.987573,-0.0203,15211,47
E16,A5,214,46,0.990202,-0.0255,15211,47
E16,A5,219,42,0.612862,-0.0078,15211,47
E16,A5,219,43,0.644989,-0.0227,15211,47
E16,A5,219,44,0.6242,-0.0096,15211,47
E16,A5,219,45,0.653726,-0.039,15211,47
E16,A5,219,46,0.660732,-0.0463,15211,47
E16,A5,221,42,1.0,-0.0148,15211,47
E16,A5,221,43,0.999692,0.0077,15211,47
E16,A5,221,44,0.999692,-0.02,15211,47
E16,A5,221,45,1.0,-0.0068,15211,47
E16,A5,221,46,1.0,-0.0034,15211,47
E16,A5,222,42,0.656387,-0.1529,15211,47
E16,A5,222,43,0.703124,0.0018,15211,47
E16,A5,222,44,0.700702,0.0,15211,47
E16,A5,222,45,0.710435,-0.0071,15211,47
E16,A5,222,46,0.673373,-0.0154,15211,47
E16,A5,228,42,0.658016,0.0013,15211,47
E16,A5,228,43,0.664687,-0.0066,15211,47
E16,A5,228,44,0.661721,-0.0031,15211,47
E16,A5,228,45,0.664682,-0.0501,15211,47
E16,A5,228,46,0.665483,-0.0396,15211,47
E16,A5,231,42,1.0,-0.043,15211,47
E16,A5,231,43,1.0,0.0001,15211,47
E16,A5,231,44,1.0,0.0004,15211,47
E16,A5,231,45,1.0,-0.0874,15211,47
E16,A5,231,46,1.0,-0.0576,15211,47
E16,A5,232,42,0.993567,-0.1747,15211,47
E16,A5,232,43,0.992137,-0.1168,15211,47
E16,A5,232,44,0.991223,-0.178,15211,47
E16,A5,232,45,0.992137,-0.1386,15211,47
E16,A5,232,46,0.990469,-0.1697,15211,47
E16,A5,233,42,0.883393,-0.0151,15211,47
E16,A5,233,43,0.851549,-0.0093,15211,47
E16,A5,233,44,0.911221,-0.0177,15211,47
E16,A5,233,45,0.77073,-0.0008,15211,47
E16,A5,233,46,0.882911,-0.0092,15211,47
E16,A5,234,42,0.654448,-0.117,15211,47
E16,A5,234,43,0.687395,0.0031,15211,47
E16,A5,234,44,0.707481,-0.0185,15211,47
E16,A5,234,45,0.766176,-0.0128,15211,47
E16,A5,234,46,0.746652,-0.0079,15211,47
