experiment_id,arm,record,seed,macro_f1_present,source_change,used_bytes,replay_items
E17,A0,100,42,0.827017,0.0,0,0
E17,A0,100,43,0.827017,0.0,0,0
E17,A0,100,44,0.827017,0.0,0,0
E17,A0,100,45,0.827017,0.0,0,0
E17,A0,100,46,0.827017,0.0,0,0
E17,A0,103,42,0.499683,0.0,0,0
E17,A0,103,43,0.499683,0.0,0,0
E17,A0,103,44,0.499683,0.0,0,0
E17,A0,103,45,0.499683,0.0,0,0
E17,A0,103,46,0.499683,0.0,0,0
E17,A0,105,42,0.658674,0.0,0,0
E17,A0,105,43,0.658674,0.0,0,0
E17,A0,105,44,0.658674,0.0,0,0
E17,A0,105,45,0.658674,0.0,0,0
E17,A0,105,46,0.658674,0.0,0,0
E17,A0,111,42,0.473118,0.0,0,0
E17,A0,111,43,0.473118,0.0,0,0
E17,A0,111,44,0.473118,0.0,0,0
E17,A0,111,45,0.473118,0.0,0,0
E17,A0,111,46,0.473118,0.0,0,0
E17,A0,113,42,0.642079,0.0,0,0
E17,A0,113,43,0.642079,0.0,0,0
E17,A0,113,44,0.642079,0.0,0,0
E17,A0,113,45,0.642079,0.0,0,0
E17,A0,113,46,0.642079,0.0,0,0
E17,A0,117,42,0.206019,0.0,0,0
E17,A0,117,43,0.206019,0.0,0,0
E17,A0,117,44,0.206019,0.0,0,0
E17,A0,117,45,0.206019,0.0,0,0
E17,A0,117,46,0.206019,0.0,0,0
E17,A0,121,42,0.666544,0.0,0,0
E17,A0,121,43,0.666544,0.0,0,0
E17,A0,121,44,0.666544,0.0,0,0
E17,A0,121,45,0.666544,0.0,0,0
E17,A0,121,46,0.666544,0.0,0,0
E17,A0,123,42,0.999505,0.0,0,0
E17,A0,123,43,0.999505,0.0,0,0
E17,A0,123,44,0.999505,0.0,0,0
E17,A0,123,45,0.999505,0.0,0,0
E17,A0,123,46,0.999505,0.0,0,0
E17,A0,200,42,0.750381,0.0,0,0
E17,A0,200,43,0.750381,0.0,0,0
E17,A0,200,44,0.750381,0.0,0,0
E17,A0,200,45,0.750381,0.0,0,0
E17,A0,200,46,0.750381,0.0,0,0
E17,A0,210,42,0.595157,0.0,0,0
E17,A0,210,43,0.595157,0.0,0,0
E17,A0,210,44,0.595157,0.0,0,0
E17,A0,210,45,0.595157,0.0,0,0
E17,A0,210,46,0.595157,0.0,0,0
E17,A0,212,42,0.99866,0.0,0,0
E17,A0,212,43,0.99866,0.0,0,0
E17,A0,212,44,0.99866,0.0,0,0
E17,A0,212,45,0.99866,0.0,0,0
E17,A0,212,46,0.99866,0.0,0,0
E17,A0,213,42,0.367538,0.0,0,0
E17,A0,213,43,0.367538,0.0,0,0
E17,A0,213,44,0.367538,0.0,0,0
E17,A0,213,45,0.367538,0.0,0,0
E17,A0,213,46,0.367538,0.0,0,0
E17,A0,214,42,0.892575,0.0,0,0
E17,A0,214,43,0.892575,0.0,0,0
E17,A0,214,44,0.892575,0.0,0,0
E17,A0,214,45,0.892575,0.0,0,0
E17,A0,214,46,0.892575,0.0,0,0
E17,A0,219,42,0.426601,0.0,0,0
E17,A0,219,43,0.426601,0.0,0,0
E17,A0,219,44,0.426601,0.0,0,0
E17,A0,219,45,0.426601,0.0,0,0
E17,A0,219,46,0.426601,0.0,0,0
E17,A0,221,42,0.999072,0.0,0,0
E17,A0,221,43,0.999072,0.0,0,0
E17,A0,221,44,0.999072,0.0,0,0
E17,A0,221,45,0.999072,0.0,0,0
E17,A0,221,46,0.999072,0.0,0,0
E17,A0,222,42,0.691985,0.0,0,0
E17,A0,222,43,0.691985,0.0,0,0
E17,A0,222,44,0.691985,0.0,0,0
E17,A0,222,45,0.691985,0.0,0,0
E17,A0,222,46,0.691985,0.0,0,0
E17,A0,228,42,0.625196,0.0,0,0
E17,A0,228,43,0.625196,0.0,0,0
E17,A0,228,44,0.625196,0.0,0,0
E17,A0,228,45,0.625196,0.0,0,0
E17,A0,228,46,0.625196,0.0,0,0
E17,A0,231,42,0.997649,0.0,0,0
E17,A0,231,43,0.997649,0.0,0,0
E17,A0,231,44,0.997649,0.0,0,0
E17,A0,231,45,0.997649,0.0,0,0
E17,A0,231,46,0.997649,0.0,0,0
E17,A0,232,42,0.187759,0.0,0,0
E17,A0,232,43,0.187759,0.0,0,0
E17,A0,232,44,0.187759,0.0,0,0
E17,A0,232,45,0.187759,0.0,0,0
E17,A0,232,46,0.187759,0.0,0,0
E17,A0,233,42,0.761196,0.0,0,0
E17,A0,233,43,0.761196,0.0,0,0
E17,A0,233,44,0.761196,0.0,0,0
E17,A0,233,45,0.761196,0.0,0,0
E17,A0,233,46,0.761196,0.0,0,0
E17,A0,234,42,0.726604,0.0,0,0
E17,A0,234,43,0.726604,0.0,0,0
E17,A0,234,44,0.726604,0.0,0,0
E17,A0,234,45,0.726604,0.0,0,0
E17,A0,234,46,0.726604,0.0,0,0
E17,A1,100,42,0.966841,-0.0289,16374,705
E17,A1,100,43,0.966841,-0.0307,16374,705
E17,A1,100,44,0.966841,-0.045,16374,705
E17,A1,100,45,0.973976,-0.0506,16374,705
E17,A1,100,46,0.973976,-0.0371,16374,705
E17,A1,103,42,0.499207,-0.0263,16374,705
E17,A1,103,43,0.499524,-0.0193,16374,705
E17,A1,103,44,0.499365,-0.0445,16374,705
E17,A1,103,45,0.499365,-0.0303,16374,705
E17,A1,103,46,0.499524,-0.0266,16374,705
E17,A1,105,42,0.653836,-0.0338,16374,705
E17,A1,105,43,0.640123,-0.0109,16374,705
E17,A1,105,44,0.658186,-0.0338,16374,705
E17,A1,105,45,0.66905,-0.0221,16374,705
E17,A1,105,46,0.642753,-0.01,16374,705
E17,A1,111,42,0.522468,-0.02,16374,705
E17,A1,111,43,0.524099,-0.0177,16374,705
E17,A1,111,44,0.555556,-0.0499,16374,705
E17,A1,111,45,0.562771,-0.0244,16374,705
E17,A1,111,46,0.524516,-0.0263,16374,705
E17,A1,113,42,0.899806,-0.0307,16374,705
E17,A1,113,43,0.899806,-0.0175,16374,705
E17,A1,113,44,0.749222,-0.0432,16374,705
E17,A1,113,45,0.749222,-0.0309,16374,705
E17,A1,113,46,0.899806,-0.0309,16374,705
E17,A1,117,42,1.0,-0.0362,16374,705
E17,A1,117,43,0.999026,-0.0232,16374,705
E17,A1,117,44,0.998294,-0.0449,16374,705
E17,A1,117,45,0.999514,-0.0375,16374,705
E17,A1,117,46,0.999757,-0.0352,16374,705
E17,A1,121,42,0.888766,-0.0312,16374,705
E17,A1,121,43,0.666421,-0.0234,16374,705
E17,A1,121,44,0.999877,-0.0376,16374,705
E17,A1,121,45,0.666421,-0.0247,16374,705
E17,A1,121,46,0.666421,-0.0249,16374,705
E17,A1,123,42,0.999505,-0.0469,16374,705
E17,A1,123,43,0.999505,-0.0207,16374,705
E17,A1,123,44,0.999505,-0.0492,16374,705
E17,A1,123,45,0.999505,-0.0426,16374,705
E17,A1,123,46,0.999505,-0.0307,16374,705
E17,A1,200,42,0.758189,-0.0186,16374,705
E17,A1,200,43,0.751977,-0.0082,16374,705
E17,A1,200,44,0.767257,-0.013,16374,705
E17,A1,200,45,0.742503,-0.0135,16374,705
E17,A1,200,46,0.742025,-0.0143,16374,705
E17,A1,210,42,0.690952,-0.0279,16374,705
E17,A1,210,43,0.616652,-0.0327,16374,705
E17,A1,210,44,0.659024,-0.0394,16374,705
E17,A1,210,45,0.641037,-0.0389,16374,705
E17,A1,210,46,0.660371,-0.0491,16374,705
E17,A1,212,42,0.998436,-0.0224,16374,705
E17,A1,212,43,0.998883,-0.0097,16374,705
E17,A1,212,44,0.998212,-0.024,16374,705
E17,A1,212,45,0.99754,-0.0181,16374,705
E17,A1,212,46,0.99866,-0.0037,16374,705
E17,A1,213,42,0.553701,-0.0427,16374,705
E17,A1,213,43,0.546892,-0.0219,16374,705
E17,A1,213,44,0.543396,-0.0454,16374,705
E17,A1,213,45,0.538139,-0.0571,16374,705
E17,A1,213,46,0.553099,-0.0405,16374,705
E17,A1,214,42,0.9795,-0.0385,16374,705
E17,A1,214,43,0.984434,-0.0318,16374,705
E17,A1,214,44,0.987191,-0.0618,16374,705
E17,A1,214,45,0.981269,-0.0509,16374,705
E17,A1,214,46,0.985698,-0.0405,16374,705
E17,A1,219,42,0.652628,-0.0313,16374,705
E17,A1,219,43,0.649462,-0.0111,16374,705
E17,A1,219,44,0.648119,-0.0388,16374,705
E17,A1,219,45,0.649833,-0.036,16374,705
E17,A1,219,46,0.650574,-0.0328,16374,705
E17,A1,221,42,0.997617,-0.0081,16374,705
E17,A1,221,43,0.997307,-0.0097,16374,705
E17,A1,221,44,0.997462,-0.0188,16374,705
E17,A1,221,45,0.99678,-0.0202,16374,705
E17,A1,221,46,0.996935,-0.0123,16374,705
E17,A1,222,42,0.680894,-0.0183,16374,705
E17,A1,222,43,0.675787,-0.0154,16374,705
E17,A1,222,44,0.672778,-0.0427,16374,705
E17,A1,222,45,0.684788,-0.0294,16374,705
E17,A1,222,46,0.668858,-0.0327,16374,705
E17,A1,228,42,0.661574,-0.0344,16374,705
E17,A1,228,43,0.662132,-0.0184,16374,705
E17,A1,228,44,0.661575,-0.0351,16374,705
E17,A1,228,45,0.660742,-0.0182,16374,705
E17,A1,228,46,0.663868,-0.0183,16374,705
E17,A1,231,42,1.0,-0.0211,16374,705
E17,A1,231,43,1.0,-0.0132,16374,705
E17,A1,231,44,1.0,-0.0449,16374,705
E17,A1,231,45,1.0,-0.0498,16374,705
E17,A1,231,46,1.0,-0.0306,16374,705
E17,A1,232,42,0.944196,-0.1793,16374,705
E17,A1,232,43,0.935631,-0.1853,16374,705
E17,A1,232,44,0.958788,-0.1822,16374,705
E17,A1,232,45,0.951073,-0.1917,16374,705
E17,A1,232,46,0.957451,-0.1858,16374,705
E17,A1,233,42,0.768382,-0.0409,16374,705
E17,A1,233,43,0.658517,-0.0337,16374,705
E17,A1,233,44,0.76994,-0.0398,16374,705
E17,A1,233,45,0.74194,-0.0472,16374,705
E17,A1,233,46,0.752342,-0.0329,16374,705
E17,A1,234,42,0.745506,-0.0437,16374,705
E17,A1,234,43,0.725233,-0.0245,16374,705
E17,A1,234,44,0.790769,-0.0452,16374,705
E17,A1,234,45,0.815677,-0.043,16374,705
E17,A1,234,46,0.722574,-0.0236,16374,705
E17,A4,100,42,0.966841,-0.0279,16208,62
E17,A4,100,43,0.935309,-0.0032,16208,62
E17,A4,100,44,0.973976,-0.0223,16208,62
E17,A4,100,45,0.966841,-0.0234,16208,62
E17,A4,100,46,0.943679,-0.0096,16208,62
E17,A4,103,42,0.499683,-0.0118,16208,62
E17,A4,103,43,0.499683,0.0061,16208,62
E17,A4,103,44,0.499524,-0.0237,16208,62
E17,A4,103,45,0.499683,-0.0004,16208,62
E17,A4,103,46,0.499683,0.0007,16208,62
E17,A4,105,42,0.664725,-0.0177,16208,62
E17,A4,105,43,0.692476,0.0045,16208,62
E17,A4,105,44,0.707032,-0.012,16208,62
E17,A4,105,45,0.718566,-0.0098,16208,62
E17,A4,105,46,0.711579,-0.0081,16208,62
E17,A4,111,42,0.665892,-0.0305,16208,62
E17,A4,111,43,0.598605,-0.0102,16208,62
E17,A4,111,44,0.581471,0.0021,16208,62
E17,A4,111,45,0.699381,-0.0111,16208,62
E17,A4,111,46,0.665892,-0.004,16208,62
E17,A4,113,42,0.642079,0.0073,16208,62
E17,A4,113,43,0.899806,-0.0356,16208,62
E17,A4,113,44,0.899806,-0.0045,16208,62
E17,A4,113,45,1.0,-0.0202,16208,62
E17,A4,113,46,1.0,-0.0138,16208,62
E17,A4,117,42,0.99927,-0.0474,16208,62
E17,A4,117,43,0.998782,-0.0082,16208,62
E17,A4,117,44,0.999026,-0.0265,16208,62
E17,A4,117,45,0.999514,-0.002,16208,62
E17,A4,117,46,0.499514,0.0005,16208,62
E17,A4,121,42,0.555063,-0.0271,16208,62
E17,A4,121,43,0.666544,0.0045,16208,62
E17,A4,121,44,0.666051,-0.0389,16208,62
E17,A4,121,45,0.666544,0.0011,16208,62
E17,A4,121,46,0.55494,-0.0076,16208,62
E17,A4,123,42,1.0,-0.0568,16208,62
E17,A4,123,43,0.999753,0.0041,16208,62
E17,A4,123,44,0.999505,0.0051,16208,62
E17,A4,123,45,0.999505,0.0033,16208,62
E17,A4,123,46,0.999505,-0.0008,16208,62
E17,A4,200,42,0.722119,0.0085,16208,62
E17,A4,200,43,0.721144,0.0094,16208,62
E17,A4,200,44,0.730024,-0.0014,16208,62
E17,A4,200,45,0.726191,-0.0087,16208,62
E17,A4,200,46,0.716728,-0.0112,16208,62
E17,A4,210,42,0.708118,-0.059,16208,62
E17,A4,210,43,0.75488,-0.0199,16208,62
E17,A4,210,44,0.674592,-0.0029,16208,62
E17,A4,210,45,0.730423,-0.0574,16208,62
E17,A4,210,46,0.789187,-0.0283,16208,62
E17,A4,212,42,0.998883,-0.0024,16208,62
E17,A4,212,43,0.998883,0.0082,16208,62
E17,A4,212,44,0.998883,-0.0322,16208,62
E17,A4,212,45,0.998883,0.0021,16208,62
E17,A4,212,46,0.998883,0.001,16208,62
E17,A4,213,42,0.582943,-0.1354,16208,62
E17,A4,213,43,0.577976,-0.0699,16208,62
E17,A4,213,44,0.561042,-0.0844,16208,62
E17,A4,213,45,0.573588,-0.1035,16208,62
E17,A4,213,46,0.550303,-0.0589,16208,62
E17,A4,214,42,0.997462,-0.0868,16208,62
E17,A4,214,43,0.997462,-0.0402,16208,62
E17,A4,214,44,0.994738,-0.0407,16208,62
E17,A4,214,45,0.998567,-0.0629,16208,62
E17,A4,214,46,0.986086,-0.0214,16208,62
E17,A4,219,42,0.625722,-0.0036,16208,62
E17,A4,219,43,0.644204,-0.0369,16208,62
E17,A4,219,44,0.659015,-0.0387,16208,62
E17,A4,219,45,0.638184,-0.0085,16208,62
E17,A4,219,46,0.653275,-0.0255,16208,62
E17,A4,221,42,0.999846,-0.0225,16208,62
E17,A4,221,43,0.999691,0.0064,16208,62
E17,A4,221,44,0.999382,0.0081,16208,62
E17,A4,221,45,0.999537,0.0025,16208,62
E17,A4,221,46,0.999691,0.0098,16208,62
E17,A4,222,42,0.710801,-0.0262,16208,62
E17,A4,222,43,0.704932,-0.0259,16208,62
E17,A4,222,44,0.7109,-0.0234,16208,62
E17,A4,222,45,0.694359,0.005,16208,62
E17,A4,222,46,0.659458,-0.006,16208,62
E17,A4,228,42,0.663884,-0.0172,16208,62
E17,A4,228,43,0.66307,-0.0066,16208,62
E17,A4,228,44,0.661592,0.0035,16208,62
E17,A4,228,45,0.659965,0.0071,16208,62
E17,A4,228,46,0.66307,-0.0651,16208,62
E17,A4,231,42,1.0,-0.0298,16208,62
E17,A4,231,43,1.0,0.0124,16208,62
E17,A4,231,44,1.0,-0.0154,16208,62
E17,A4,231,45,1.0,-0.1707,16208,62
E17,A4,231,46,1.0,0.0078,16208,62
E17,A4,232,42,0.990457,-0.1796,16208,62
E17,A4,232,43,0.990726,-0.112,16208,62
E17,A4,232,44,0.990961,-0.1623,16208,62
E17,A4,232,45,0.990709,-0.1995,16208,62
E17,A4,232,46,0.990961,-0.1536,16208,62
E17,A4,233,42,0.850904,-0.0344,16208,62
E17,A4,233,43,0.793662,-0.007,16208,62
E17,A4,233,44,0.770304,-0.0031,16208,62
E17,A4,233,45,0.826433,-0.0028,16208,62
E17,A4,233,46,0.793916,-0.0166,16208,62
E17,A4,234,42,0.630527,-0.0409,16208,62
E17,A4,234,43,0.676054,0.0062,16208,62
E17,A4,234,44,0.745376,0.0007,16208,62
E17,A4,234,45,0.755382,0.0026,16208,62
E17,A4,234,46,0.688698,0.0053,16208,62
E17,A5,100,42,0.973976,-0.0167,16226,52
E17,A5,100,43,0.993844,-0.025,16226,52
E17,A5,100,44,0.987463,-0.0298,16226,52
E17,A5,100,45,0.966841,-0.0288,16226,52
E17,A5,100,46,0.966841,-0.0314,16226,52
E17,A5,103,42,0.499683,0.0005,16226,52
E17,A5,103,43,0.499683,-0.0051,16226,52
E17,A5,103,44,0.499683,-0.0265,16226,52
E17,A5,103,45,0.499683,-0.0084,16226,52
E17,A5,103,46,0.499524,-0.0064,16226,52
E17,A5,105,42,0.68853,0.0053,16226,52
E17,A5,105,43,0.700831,-0.0002,16226,52
E17,A5,105,44,0.706022,-0.0034,16226,52
E17,A5,105,45,0.697172,-0.0032,16226,52
E17,A5,105,46,0.69468,-0.0128,16226,52
E17,A5,111,42,0.62376,-0.0323,16226,52
E17,A5,111,43,0.641928,-0.0092,16226,52
E17,A5,111,44,0.610027,-0.0009,16226,52
E17,A5,111,45,0.832869,-0.0226,16226,52
E17,A5,111,46,0.641928,-0.0225,16226,52
E17,A5,113,42,1.0,-0.0144,16226,52
E17,A5,113,43,1.0,-0.0146,16226,52
E17,A5,113,44,1.0,-0.0144,16226,52
E17,A5,113,45,1.0,-0.02,16226,52
E17,A5,113,46,1.0,-0.0204,16226,52
E17,A5,117,42,0.999757,0.0005,16226,52
E17,A5,117,43,0.99927,-0.0106,16226,52
E17,A5,117,44,0.999757,-0.0084,16226,52
E17,A5,117,45,0.999514,-0.0378,16226,52
E17,A5,117,46,0.499514,-0.0065,16226,52
E17,A5,121,42,0.666544,0.0016,16226,52
E17,A5,121,43,0.555186,-0.0255,16226,52
E17,A5,121,44,0.666421,-0.0364,16226,52
E17,A5,121,45,0.666544,0.0043,16226,52
E17,A5,121,46,0.55494,-0.0049,16226,52
E17,A5,123,42,1.0,-0.0332,16226,52
E17,A5,123,43,0.999505,-0.0156,16226,52
E17,A5,123,44,0.999505,-0.0021,16226,52
E17,A5,123,45,0.999505,-0.0053,16226,52
E17,A5,123,46,1.0,-0.0236,16226,52
E17,A5,200,42,0.728065,0.009,16226,52
E17,A5,200,43,0.743703,-0.0462,16226,52
E17,A5,200,44,0.729715,-0.0009,16226,52
E17,A5,200,45,0.721062,0.0089,16226,52
E17,A5,200,46,0.716678,-0.0287,16226,52
E17,A5,210,42,0.745139,-0.077,16226,52
E17,A5,210,43,0.772105,-0.0355,16226,52
E17,A5,210,44,0.764859,-0.0147,16226,52
E17,A5,210,45,0.831189,-0.0723,16226,52
E17,A5,210,46,0.802099,-0.0164,16226,52
E17,A5,212,42,0.998883,0.0002,16226,52
E17,A5,212,43,0.999107,-0.0199,16226,52
E17,A5,212,44,0.998883,0.0065,16226,52
E17,A5,212,45,0.998883,-0.0073,16226,52
E17,A5,212,46,0.999107,-0.0107,16226,52
E17,A5,213,42,0.520957,-0.0945,16226,52
E17,A5,213,43,0.587582,-0.075,16226,52
E17,A5,213,44,0.558513,-0.069,16226,52
E17,A5,213,45,0.667371,-0.1542,16226,52
E17,A5,213,46,0.626919,-0.1594,16226,52
E17,A5,214,42,0.994417,-0.0615,16226,52
E17,A5,214,43,0.994417,-0.0261,16226,52
E17,A5,214,44,0.914689,0.0025,16226,52
E17,A5,214,45,0.990362,-0.1827,16226,52
E17,A5,214,46,0.99004,-0.0293,16226,52
E17,A5,219,42,0.604644,-0.0046,16226,52
E17,A5,219,43,0.647963,-0.0147,16226,52
E17,A5,219,44,0.635643,-0.0236,16226,52
E17,A5,219,45,0.652002,-0.0272,16226,52
E17,A5,219,46,0.648667,-0.0514,16226,52
E17,A5,221,42,0.999691,0.0064,16226,52
E17,A5,221,43,1.0,-0.0225,16226,52
E17,A5,221,44,1.0,0.0057,16226,52
E17,A5,221,45,1.0,-0.0038,16226,52
E17,A5,221,46,1.0,-0.0074,16226,52
E17,A5,222,42,0.693568,-0.1391,16226,52
E17,A5,222,43,0.703744,-0.0222,16226,52
E17,A5,222,44,0.710713,-0.0207,16226,52
E17,A5,222,45,0.709978,-0.0221,16226,52
E17,A5,222,46,0.686015,-0.0148,16226,52
E17,A5,228,42,0.664676,-0.0842,16226,52
E17,A5,228,43,0.661479,-0.033,16226,52
E17,A5,228,44,0.658112,0.0012,16226,52
E17,A5,228,45,0.66306,-0.0181,16226,52
E17,A5,228,46,0.664676,-0.0305,16226,52
E17,A5,231,42,1.0,-0.0013,16226,52
E17,A5,231,43,1.0,-0.0764,16226,52
E17,A5,231,44,1.0,-0.0072,16226,52
E17,A5,231,45,1.0,-0.0244,16226,52
E17,A5,231,46,1.0,-0.0536,16226,52
E17,A5,232,42,0.992127,-0.1871,16226,52
E17,A5,232,43,0.99123,-0.0968,16226,52
E17,A5,232,44,0.987735,-0.1669,16226,52
E17,A5,232,45,0.992127,-0.175,16226,52
E17,A5,232,46,0.990709,-0.1636,16226,52
E17,A5,233,42,0.850416,-0.0041,16226,52
E17,A5,233,43,0.902678,-0.0234,16226,52
E17,A5,233,44,0.744301,-0.0107,16226,52
E17,A5,233,45,0.850416,-0.0017,16226,52
E17,A5,233,46,0.883624,-0.0088,16226,52
E17,A5,234,42,0.727294,0.0047,16226,52
E17,A5,234,43,0.630527,-0.0111,16226,52
E17,A5,234,44,0.737002,-0.0095,16226,52
E17,A5,234,45,0.775662,-0.0045,16226,52
E17,A5,234,46,0.676726,0.0055,16226,52
